BSA (m^2),"LVED Posterior Wall Thickness, 50th Percentile (mm)","LVED Posterior Wall Thickness, 5th Percentile (mm)","LVED Posterior Wall Thickness, 95th Percentile (mm)"
0.304,4.58,4.52,4.79
0.333,4.63,4.57,4.86
0.359,4.68,4.59,4.91
0.392,4.74,4.66,4.98
0.425,4.8,4.7,5.03
0.458,4.87,4.76,5.1
0.487,4.92,4.8,5.16
0.517,4.97,4.87,5.21
0.554,5.05,4.94,5.3
0.594,5.12,5.02,5.35
0.634,5.2,5.1,5.41
0.675,5.27,5.2,5.48
0.704,5.34,5.27,5.54
0.748,5.42,5.36,5.6
